Motion Through Fluids Experiment Wed, Feb 12, 2020 10:54 AM
Time(sec)	Position(mm)
0.053	0.000
0.253	0.000
0.453	0.000
0.654	0.000
0.853	0.000
1.053	0.000
1.253	0.000
1.453	0.000
1.653	0.000
1.853	0.000
2.053	0.000
2.254	0.000
2.453	0.000
2.653	0.000
2.853	0.000
3.053	0.000
3.253	0.000
3.453	0.000
3.653	0.000
3.853	0.000
4.053	0.675
4.253	1.768
4.453	2.315
4.654	2.862
4.853	3.409
5.053	3.955
5.253	4.502
5.453	5.595
5.653	6.142
5.853	6.689
6.053	7.236
6.253	7.782
6.453	8.876
6.653	9.423
6.853	9.969
7.053	10.516
7.253	11.063
7.453	11.610
7.653	12.703
7.853	13.250
8.053	13.797
8.253	14.343
8.453	14.890
8.653	15.437
8.853	16.530
9.053	17.077
9.254	17.624
9.453	18.171
9.653	18.717
9.854	19.811
10.053	20.358
10.253	20.904
10.453	21.451
10.653	21.998
10.853	22.545
11.053	23.091
11.253	24.185
11.454	24.732
11.653	25.278
11.853	25.825
12.053	26.372
12.253	27.465
12.454	28.012
12.653	28.559
12.853	29.105
13.053	29.652
13.253	30.199
13.453	31.292
13.653	31.839
13.853	32.386
14.053	32.933
14.253	33.479
14.453	34.026
14.653	35.120
14.853	35.666
15.053	36.213
15.253	36.760
15.453	37.307
15.653	38.400
15.853	38.947
16.053	39.494
16.253	40.040
16.453	40.587
16.654	41.134
16.853	41.681
17.053	42.774
17.253	43.321
17.453	43.868
17.653	44.414
17.853	44.961
18.053	46.055
18.253	46.601
18.453	47.148
18.653	47.695
18.853	48.241
19.053	48.788
19.253	49.882
19.453	50.428
19.653	50.975
19.853	51.522
20.053	52.069
20.253	52.615
20.453	53.709
20.653	54.256
20.853	54.802
21.053	55.349
21.254	55.896
21.453	56.989
21.653	57.536
21.853	58.083
22.053	58.630
22.254	59.176
22.453	59.723
22.653	60.817
22.853	61.363
23.053	61.910
23.253	62.457
23.453	63.004
23.653	64.097
23.853	64.644
24.053	65.191
24.253	65.737
24.453	66.284
24.653	66.831
24.853	67.924
25.053	68.471
25.253	69.018
25.453	69.564
25.654	70.111
25.853	71.205
26.053	71.751
26.253	72.298
26.453	72.845
26.653	73.392
26.853	73.938
27.053	74.485
27.253	75.579
27.453	76.125
27.653	76.672
27.853	77.219
28.053	77.766
28.254	78.312
28.453	79.406
28.653	79.953
28.853	80.499
29.053	81.046
29.253	81.593
29.453	82.140
29.653	83.233
29.853	83.780
30.053	84.327
30.253	84.873
30.453	85.420
30.653	85.967
30.853	87.060
31.053	87.607
31.253	88.154
31.453	88.701
31.653	89.247
31.853	90.341
32.053	90.887
32.253	91.434
32.453	91.981
32.653	92.528
32.853	93.074
33.053	93.621
33.253	94.715
33.454	95.261
33.653	95.808
33.853	96.355
34.053	96.902
34.253	97.995
34.453	98.542
34.653	99.089
34.853	99.635
35.053	100.182
35.253	101.276
35.453	101.822
35.653	102.369
35.853	102.916
36.053	103.463
36.253	104.009
36.453	105.103
36.653	105.650
36.853	106.196
37.053	106.743
37.253	107.290
37.453	107.837
37.653	108.930
37.853	109.477
38.053	110.024
38.253	110.570
38.453	111.117
38.653	111.664
38.853	112.210
39.053	113.304
39.253	113.851
39.453	114.397
39.653	114.944
39.853	115.491
40.053	116.584
40.253	117.131
40.453	117.678
40.653	118.225
40.853	118.771
41.053	119.318
41.254	120.412
41.453	120.958
41.653	121.505
41.853	122.052
42.053	122.599
42.254	123.145
42.453	123.692
42.653	124.786
42.853	125.332
43.053	125.879
43.253	126.426
43.453	126.973
43.653	127.519
43.853	128.613
44.053	129.160
44.254	129.706
44.453	130.253
44.653	130.800
44.854	131.893
45.053	132.440
45.253	132.987
45.453	133.533
45.653	134.080
45.853	134.627
46.053	135.720
46.253	136.267
46.453	136.814
46.653	137.361
46.853	137.907
47.053	139.001
47.253	139.548
47.453	140.094
47.653	140.641
47.853	141.188
48.053	141.735
48.253	142.281
48.453	143.375
48.653	143.922
48.853	144.468
49.053	145.015
49.253	145.562
49.454	146.655
49.653	147.202
49.853	147.749
50.053	148.296
50.253	148.842
50.453	149.389
50.653	149.936
50.853	151.029
51.053	151.576
51.262	152.123
51.453	152.670
51.653	153.216
51.853	153.763
52.053	154.856
52.253	155.403
52.453	155.950
52.653	156.497
52.853	157.043
53.053	157.590
53.253	158.137
53.453	159.230
53.653	159.777
53.853	160.324
54.053	160.871
54.253	161.964
54.453	162.511
54.653	163.058
54.853	163.604
55.053	164.151
55.253	164.698
55.453	165.245
55.653	166.338
55.853	166.885
56.053	167.432
56.253	167.978
56.453	168.525
56.653	169.072
56.853	170.165
57.053	170.712
57.253	171.259
57.453	171.806
57.653	172.352
57.853	172.899
58.053	173.992
58.253	174.539
58.453	175.086
58.653	175.633
58.853	176.179
59.053	176.726
59.253	177.273
59.453	178.366
59.653	178.913
59.853	179.460
60.053	180.007
60.253	180.553
60.453	181.647
60.653	182.194
60.853	182.740
61.053	183.287
61.253	183.834
61.453	184.381
61.653	184.927
61.853	186.021
62.053	186.568
62.253	187.114
62.453	187.661
62.653	188.208
62.853	188.755
63.053	189.848
63.253	190.395
63.453	190.942
63.653	191.488
63.853	192.035
64.053	192.582
64.253	193.129
64.453	194.222
64.653	194.769
64.853	195.316
65.053	195.862
65.253	196.409
65.454	197.502
65.653	198.049
65.853	198.596
66.053	199.143
66.253	199.689
66.453	200.236
66.653	200.783
66.853	201.876
67.053	202.423
67.253	202.970
67.453	203.517
67.653	204.063
67.853	204.610
68.053	205.157
68.253	206.250
68.453	206.797
68.653	207.344
68.853	207.891
69.053	208.437
69.253	208.984
69.453	210.078
69.653	210.624
69.853	211.171
70.053	211.718
70.253	212.265
70.453	212.811
70.653	213.905
70.853	214.452
71.053	214.998
71.254	215.545
71.453	216.092
71.653	216.638
71.853	217.185
72.053	218.279
72.253	218.825
72.453	219.372
72.653	219.919
72.853	220.466
73.053	221.012
73.253	221.559
73.453	222.653
73.653	223.199
73.853	223.746
74.053	224.293
74.253	224.840
74.453	225.386
74.653	225.933
74.853	227.027
75.053	227.573
75.253	228.120
75.453	228.667
75.653	229.214
75.853	229.760
76.053	230.307
76.253	231.401
76.453	231.947
76.653	232.494
76.853	233.041
77.053	233.588
77.253	234.134
77.453	235.228
77.653	235.775
77.853	236.321
78.053	236.868
78.253	237.415
78.453	237.962
78.653	238.508
78.853	239.602
79.053	240.148
79.253	240.695
79.453	241.242
79.653	241.789
79.853	242.335
80.053	242.882
80.253	243.976
80.453	244.522
80.653	245.069
80.853	245.616
81.053	246.163
81.253	246.709
81.453	247.256
81.653	248.350
81.853	248.896
82.053	249.443
82.254	249.990
82.453	250.537
82.653	251.083
82.853	251.630
83.053	252.177
83.253	253.270
83.453	253.817
83.653	254.364
83.853	254.911
84.053	0.000
84.254	0.000
84.453	0.000
84.653	0.000
84.856	0.000
85.053	0.000
85.253	0.000
85.453	0.000
85.653	0.000